z	velocity	temperature	rho
0.626348	0.266402	600	0.568983
0.626873	0.274385	599.985	0.568993
0.627311	0.282892	599.968	0.569009
0.627319	0.283182	599.968	0.56901
0.628258	0.332159	599.88	0.569093
0.628346	0.342806	599.861	0.569111
0.628709	0.387456	599.784	0.569184
0.629509	0.562475	599.509	0.569445
0.630309	0.948736	599.231	0.569708
0.630709	1.38082	598.992	0.569933
0.631109	2.3471	598.475	0.570419
0.631509	4.35276	598.103	0.570747
0.631709	6.68973	597.867	0.57092
0.631909	12.1508	597.112	0.571445
0.632109	23.8462	596.726	0.571009
0.632209	36.2767	596.294	0.570062
0.632309	57.0022	594.429	0.568538
0.632409	85.5079	589.508	0.566783
0.632509	115.09	583.598	0.563647
0.632609	135.428	577.288	0.562379
0.632709	144.222	573.053	0.562507
0.632783	146.453	571.054	0.563024
0.632903	147.045	568.978	0.564295
0.633028	146.949	566.704	0.566158
0.633109	146.805	565.251	0.567383
0.633209	146.913	564.341	0.568048
0.633309	146.856	563.324	0.568841
0.633409	146.794	562.369	0.56959
0.633509	146.83	561.675	0.570085
0.633608	146.903	561.034	0.570534
0.633709	146.908	560.339	0.571034
0.633809	146.965	559.761	0.57141
0.633909	146.999	559.121	0.571854
0.634009	147.291	558.716	0.57204
0.634109	147.376	558.188	0.572335
0.634209	147.397	557.744	0.572581
0.634309	147.404	557.328	0.572818
0.634409	147.539	556.991	0.57296
0.634509	147.574	556.572	0.573186
0.634609	147.692	556.278	0.573307
0.634709	147.703	555.872	0.57352
0.634809	147.764	555.485	0.573678
0.634909	147.813	555.04	0.573885
0.635009	148.026	554.773	0.573931
0.635109	148.006	554.424	0.574084
0.635209	148.103	554.17	0.57414
0.635309	147.981	553.804	0.57432
0.635409	148.106	553.578	0.574345
0.635509	148.215	553.299	0.574422
0.635609	148.158	552.982	0.574535
0.635709	148.058	552.72	0.574621
0.635809	148.063	552.497	0.574701
0.635909	147.923	552.175	0.574857
0.636009	147.909	551.912	0.574915
0.636109	147.782	551.583	0.575037
0.636209	147.726	551.268	0.575128
0.636309	147.872	551.077	0.575097
0.636409	147.978	550.902	0.575089
0.636509	148.032	550.705	0.575124
0.636609	147.938	550.441	0.575209
0.636709	147.783	550.166	0.575308
0.636809	147.726	549.934	0.57537
0.636909	147.729	549.725	0.575385
0.637007	147.813	549.538	0.57537
0.637008	147.827	549.543	0.575364
0.637109	147.86	549.293	0.575396
0.637209	148.085	549.116	0.575329
0.637309	148.104	548.897	0.575338
0.637409	148.273	548.735	0.575317
0.637509	148.294	548.507	0.575324
0.637609	148.304	548.337	0.57527
0.637709	148.327	548.179	0.575236
0.637809	148.35	547.976	0.575236
0.637909	148.309	547.723	0.575248
0.638009	148.316	547.475	0.575234
0.638109	148.518	547.32	0.575138
0.638209	148.481	547.122	0.575107
0.638309	148.446	546.97	0.575069
0.638409	148.367	546.812	0.575076
0.638509	148.196	546.607	0.575126
0.638609	148.052	546.411	0.575155
0.638709	147.934	546.198	0.575188
0.638809	147.885	545.985	0.575193
0.638909	148.078	545.858	0.575099
0.639008	148.262	545.751	0.574999
0.639109	148.178	545.563	0.574997
0.639209	148.112	545.389	0.574984
0.639309	148.205	545.243	0.574932
0.639409	148.23	545.068	0.574898
0.639509	148.297	544.909	0.574843
0.639609	148.188	544.693	0.574845
0.639709	148.275	544.545	0.574778
0.639809	148.398	544.396	0.574714
0.639909	148.401	544.21	0.574672
0.640009	148.446	544.044	0.574607
0.640109	148.38	543.859	0.574561
0.640209	148.434	543.721	0.574488
0.640309	148.372	543.532	0.574471
0.640409	148.478	543.391	0.574384
0.640509	148.539	543.236	0.574324
0.640609	148.678	543.097	0.574259
0.640709	148.812	542.936	0.574188
0.640809	148.933	542.77	0.57411
0.640909	149.062	542.62	0.574027
0.641009	149.121	542.468	0.573958
0.641109	148.919	542.284	0.573953
0.641209	148.854	542.159	0.573923
0.641309	148.928	542.043	0.573877
0.641409	149.11	541.913	0.573811
0.641509	149.282	541.754	0.57374
0.641609	149.385	541.582	0.573662
0.641709	149.515	541.427	0.573577
0.641809	149.477	541.259	0.573508
0.641909	149.379	541.098	0.573439
0.642009	149.351	540.959	0.573395
0.642108	149.413	540.849	0.573332
0.642209	149.33	540.698	0.573304
0.642309	149.272	540.569	0.573265
0.642409	149.17	540.429	0.573242
0.642509	149.094	540.276	0.573215
0.642609	149.242	540.161	0.573123
0.642709	149.367	540.025	0.573038
0.642809	149.274	539.831	0.572995
0.642909	149.412	539.699	0.572891
0.643009	149.553	539.578	0.572787
0.643109	149.328	539.395	0.572763
0.643209	149.275	539.265	0.572713
0.643309	149.33	539.142	0.572649
0.643409	149.262	538.976	0.572604
0.643509	149.32	538.844	0.572509
0.643609	149.4	538.702	0.572417
0.643709	149.652	538.574	0.57231
0.643809	149.768	538.417	0.57222
0.643909	149.811	538.291	0.572117
0.644009	149.701	538.151	0.572065
0.644109	149.613	538.016	0.572025
0.644209	149.613	537.895	0.571964
0.644309	149.559	537.781	0.571904
0.64441	149.464	537.643	0.57188
0.644509	149.26	537.459	0.571883
0.644609	149.302	537.359	0.57179
0.644709	149.302	537.239	0.571733
0.644809	149.32	537.101	0.571676
0.644909	149.395	536.999	0.571585
0.64501	149.457	536.879	0.571522
0.645109	149.224	536.684	0.571522
0.645209	149.334	536.599	0.571423
0.645309	149.285	536.454	0.571384
0.645409	149.452	536.343	0.571271
0.645509	149.423	536.198	0.571191
0.645609	149.518	536.082	0.571107
0.645709	149.556	535.95	0.571037
0.645809	149.468	535.807	0.570989
0.645909	149.381	535.657	0.570938
0.646009	149.329	535.505	0.570862
0.646109	149.383	535.393	0.570765
0.646209	149.358	535.234	0.570721
0.646309	149.354	535.08	0.570639
0.646409	149.252	534.932	0.57056
0.646509	149.183	534.791	0.570525
0.646609	149.253	534.678	0.570451
0.646709	149.217	534.524	0.570403
0.646809	149.249	534.369	0.570334
0.646909	149.282	534.229	0.570254
0.647009	149.225	534.07	0.570203
0.647109	149.231	533.935	0.570112
0.647209	149.246	533.83	0.570014
0.64731	149.209	533.709	0.569956
0.64741	149.114	533.574	0.569929
0.647509	149.12	533.451	0.56988
0.647609	149.081	533.298	0.569839
0.64771	149.177	533.196	0.569746
0.647809	149.184	533.056	0.569703
0.647909	149.204	532.907	0.569639
0.64801	149.334	532.784	0.569543
0.648109	149.26	532.615	0.569506
0.648209	149.279	532.499	0.569418
0.648309	149.219	532.356	0.569364
0.648409	149.343	532.256	0.569256
0.648509	149.396	532.12	0.569187
0.648609	149.562	532.003	0.569074
0.648709	149.564	531.857	0.568999
0.648809	149.557	531.715	0.568923
0.64891	149.552	531.567	0.568863
0.64901	149.661	531.429	0.568803
0.649109	149.741	531.305	0.56872
0.649209	149.683	531.168	0.568659
0.64931	149.598	531.018	0.568602
0.649409	149.591	530.889	0.568527
0.64951	149.467	530.737	0.568493
0.649609	149.47	530.626	0.568434
0.649709	149.292	530.459	0.568424
0.649809	149.266	530.348	0.568358
0.649909	149.216	530.217	0.568327
0.650009	149.323	530.098	0.568257
0.650109	149.293	529.926	0.568208
0.650209	149.149	529.743	0.568167
0.650309	149.222	529.651	0.568076
0.650409	149.215	529.526	0.568033
0.650509	149.149	529.374	0.568004
0.650609	149.136	529.255	0.567965
0.650709	148.99	529.079	0.567979
0.650809	148.987	528.925	0.567921
0.650909	148.919	528.742	0.567872
0.651009	148.984	528.581	0.567807
0.65111	149.228	528.468	0.567698
0.651209	149.245	528.315	0.56764
0.651309	149.364	528.2	0.567555
0.651409	149.246	528.013	0.567543
0.651509	149.33	527.877	0.567464
0.651608	149.473	527.76	0.567374
0.651709	149.543	527.62	0.567311
0.651808	149.706	527.497	0.56724
0.651909	149.653	527.312	0.567217
0.652009	149.672	527.159	0.567151
0.652109	149.534	526.964	0.567118
0.652209	149.434	526.792	0.567053
0.652309	149.392	526.638	0.567007
0.652409	149.291	526.44	0.567007
0.652509	149.423	526.317	0.566922
0.652609	149.565	526.217	0.566818
0.652709	149.481	526.036	0.566786
0.652809	149.263	525.827	0.566781
0.652909	149.378	525.742	0.566685
0.653009	149.275	525.575	0.566666
0.653109	149.105	525.383	0.566679
0.653209	149.119	525.266	0.566626
0.653308	149.17	525.153	0.566562
0.653409	149.14	524.977	0.566548
0.653509	149.264	524.798	0.566506
0.653609	149.364	524.601	0.566448
0.653709	149.359	524.412	0.566386
0.653809	149.42	524.299	0.566309
0.653909	149.371	524.127	0.566311
0.654009	149.264	523.925	0.566328
0.654109	149.2	523.769	0.566319
0.654209	149.191	523.638	0.566307
0.654309	149.143	523.498	0.5663
0.654409	149.052	523.324	0.566326
0.65451	148.837	523.065	0.566412
0.654609	149.118	522.976	0.566267
0.654709	149.182	522.826	0.566192
0.654809	149.034	522.607	0.56623
0.654909	149.197	522.531	0.566131
0.655009	149.071	522.365	0.566154
0.655109	148.94	522.202	0.566187
0.655209	148.841	522.029	0.566223
0.655309	148.786	521.818	0.566261
0.655409	148.728	521.568	0.566282
0.655509	148.919	521.43	0.566156
0.655609	148.845	521.218	0.56614
0.655709	148.628	520.966	0.566204
0.655809	148.684	520.841	0.566141
0.655909	148.701	520.678	0.566122
0.656009	148.566	520.428	0.566172
0.656109	148.612	520.246	0.56614
0.656209	148.662	520.054	0.566136
0.656309	148.657	519.861	0.566143
0.656409	148.634	519.681	0.566151
0.656509	148.646	519.528	0.566141
0.656609	148.525	519.297	0.566223
0.656709	148.658	519.164	0.566189
0.656809	148.436	518.9	0.566289
0.656909	148.471	518.761	0.566271
0.657009	148.504	518.623	0.56626
0.657109	148.277	518.344	0.566394
0.657209	148.241	518.176	0.566404
0.657309	148.025	517.944	0.566509
0.657408	148.07	517.804	0.566513
0.657509	147.917	517.556	0.566618
0.657609	147.78	517.319	0.566698
0.657709	147.884	517.19	0.566645
0.657709	147.884	517.19	0.566645
0.657809	147.693	516.891	0.566768
0.657909	147.833	516.739	0.56672
0.658009	147.81	516.53	0.566755
0.658109	147.635	516.296	0.566856
0.658209	147.671	516.158	0.566855
0.658309	147.666	515.964	0.566893
0.658409	147.652	515.753	0.566937
0.658509	147.66	515.549	0.566972
0.658609	147.563	515.282	0.567057
0.658709	147.516	515.036	0.567113
0.658809	147.485	514.794	0.567184
0.658909	147.344	514.507	0.567306
0.659009	147.37	514.338	0.567313
0.659109	147.278	514.117	0.567408
0.659209	147.116	513.847	0.567552
0.659309	147.131	513.675	0.567587
0.659409	147.057	513.439	0.5677
0.659508	147.119	513.285	0.567715
0.659509	147.133	513.292	0.567706
0.659609	147.078	513.053	0.567793
0.659709	146.966	512.767	0.567935
0.659809	146.918	512.509	0.568039
0.659909	146.862	512.255	0.568129
0.660009	146.723	511.965	0.568271
0.660109	146.802	511.786	0.568286
0.660209	146.603	511.443	0.568474
0.660306	146.555	511.212	0.568555
0.660308	146.587	511.228	0.568534
0.660409	146.442	510.906	0.568728
0.660509	146.425	510.635	0.568852
0.660609	146.353	510.309	0.569
0.660709	146.105	509.911	0.569241
0.660809	146.152	509.77	0.569244
0.660909	146.049	509.497	0.569405
0.661009	145.955	509.228	0.56954
0.661109	145.84	508.99	0.569669
0.661208	145.754	508.804	0.569772
0.661309	145.608	508.555	0.569955
0.661409	145.372	508.228	0.57022
0.661509	145.181	507.922	0.570448
0.661609	145.107	507.692	0.570579
0.661709	145.061	507.477	0.570688
0.661809	144.884	507.157	0.570922
0.661909	144.816	506.886	0.571085
0.662009	144.83	506.653	0.57119
0.662109	144.721	506.306	0.571397
0.662208	144.618	505.97	0.57159
0.662309	144.498	505.621	0.571808
0.662409	144.516	505.376	0.57192
0.662509	144.473	505.095	0.572085
0.662609	144.18	504.664	0.572436
0.662709	143.943	504.31	0.572734
0.662809	143.754	503.99	0.572998
0.662909	143.557	503.643	0.573285
0.663009	143.471	503.347	0.573492
0.663109	143.251	502.921	0.573829
0.663209	143.128	502.585	0.574076
0.663309	143.072	502.303	0.574262
0.663409	143.05	501.994	0.574469
0.663509	142.891	501.532	0.574827
0.663609	142.888	501.211	0.574999
0.663708	142.828	500.879	0.575198
0.663709	142.831	500.879	0.575196
0.663809	142.828	500.589	0.575374
0.663909	142.67	500.098	0.57576
0.664009	142.609	499.703	0.57601
0.664109	142.481	499.278	0.576304
0.664209	142.344	498.772	0.5767
0.664309	142.304	498.328	0.577
0.664409	142.209	497.941	0.577262
0.664509	142.041	497.572	0.577554
0.664609	141.817	497.179	0.577917
0.664709	141.713	496.895	0.578153
0.664809	141.462	496.415	0.578589
0.664909	141.336	495.976	0.578931
0.665009	141.232	495.58	0.579214
0.665109	141.104	495.186	0.579515
0.665209	141.015	494.793	0.579811
0.665309	140.858	494.314	0.5802
0.665409	141.008	494.087	0.580266
0.665509	140.815	493.506	0.580743
0.665609	140.562	492.922	0.581238
0.665709	140.579	492.627	0.581416
0.665809	140.459	492.199	0.581766
0.665909	140.402	491.844	0.582028
0.666009	140.299	491.49	0.5823
0.666109	139.978	490.93	0.582848
0.666209	139.814	490.516	0.583229
0.666309	139.575	490.013	0.583705
0.666409	139.643	489.818	0.583792
0.666509	139.508	489.419	0.584131
0.666609	139.411	489.031	0.584467
0.666709	139.197	488.509	0.584937
0.666809	139.004	488.015	0.585371
0.666909	138.922	487.584	0.585722
0.667009	138.892	487.202	0.58598
0.667109	138.789	486.779	0.586306
0.667209	138.645	486.324	0.586695
0.667309	138.493	485.847	0.587107
0.667409	138.535	485.587	0.587243
0.667509	138.366	485.149	0.587624
0.667609	138.257	484.765	0.587966
0.667709	138.047	484.206	0.58849
0.667809	137.81	483.618	0.589029
0.667909	137.855	483.339	0.589189
0.668009	137.756	482.89	0.589553
0.668109	137.734	482.496	0.589835
0.668209	137.597	482.001	0.590243
0.668308	137.365	481.478	0.590729
0.668409	137.468	481.276	0.590817
0.668508	137.198	480.66	0.591407
0.668609	137.201	480.326	0.591647
0.668709	137.064	479.867	0.592035
0.668809	136.991	479.497	0.592316
0.668909	136.857	479.042	0.592719
0.669009	136.89	478.721	0.59295
0.669109	136.867	478.313	0.593259
0.669209	136.744	477.812	0.593673
0.669309	136.705	477.412	0.593971
0.669409	136.636	476.946	0.594343
0.669509	136.449	476.332	0.594893
0.669609	136.46	475.948	0.595149
0.669709	136.407	475.542	0.595457
0.669809	136.38	475.169	0.595743
0.669909	136.254	474.672	0.596185
0.670009	136.193	474.234	0.596547
0.670109	136.149	473.808	0.596892
0.670209	136.088	473.366	0.597267
0.670309	135.923	472.858	0.597737
0.670409	135.858	472.455	0.598073
0.670509	135.809	472.013	0.598435
0.670609	135.744	471.525	0.59883
0.670709	135.676	471.076	0.599177
0.670809	135.665	470.723	0.599423
0.670909	135.619	470.326	0.599739
0.671009	135.458	469.834	0.600177
0.671109	135.362	469.385	0.600548
0.671208	135.342	469.023	0.600807
0.671309	135.247	468.598	0.601162
0.671409	135.172	468.158	0.601534
0.671509	135.149	467.769	0.601829
0.671609	134.995	467.31	0.602232
0.671709	135.006	467.014	0.602437
0.671809	134.987	466.653	0.602714
0.671909	134.997	466.288	0.602984
0.672009	134.891	465.831	0.603357
0.672109	134.812	465.426	0.603669
0.672209	134.706	464.964	0.604079
0.672309	134.796	464.673	0.604243
0.672409	134.768	464.244	0.604577
0.672509	134.892	463.943	0.604759
0.672609	134.976	463.572	0.60502
0.672709	134.93	463.093	0.60541
0.672809	134.922	462.68	0.605718
0.672909	134.941	462.38	0.605894
0.673009	134.826	461.959	0.606272
0.673109	134.895	461.675	0.606462
0.673209	134.777	461.257	0.606813
0.673309	134.699	460.919	0.607084
0.673409	134.606	460.532	0.607435
0.673509	134.521	460.125	0.607785
0.673609	134.53	459.811	0.608014
0.673709	134.473	459.447	0.608319
0.673808	134.485	459.103	0.608562
0.673909	134.332	458.611	0.608989
0.674009	134.23	458.214	0.609303
0.674109	134.134	457.876	0.609577
0.674209	133.896	457.463	0.610002
0.674309	133.717	457.103	0.610384
0.674409	133.673	456.797	0.610655
0.674509	133.6	456.451	0.610952
0.674609	133.427	456.017	0.61136
0.674709	133.269	455.61	0.611728
0.674809	133.055	455.166	0.61215
0.674908	132.967	454.831	0.612441
0.675009	132.778	454.384	0.612887
0.675109	132.717	454.023	0.61318
0.675209	132.618	453.643	0.613489
0.675309	132.536	453.284	0.613778
0.675409	132.576	453.01	0.613953
0.675509	132.333	452.496	0.614453
0.675609	132.259	452.103	0.614779
0.675709	132.419	451.858	0.614884
0.675809	132.388	451.434	0.615213
0.675909	132.461	451.117	0.615408
0.676009	132.529	450.781	0.615643
0.676109	132.496	450.381	0.615952
0.676209	132.459	450.057	0.616168
0.676309	132.31	449.7	0.616461
0.676409	132.176	449.383	0.616747
0.676509	132.01	449.01	0.617118
0.676609	131.945	448.676	0.617397
0.676709	131.863	448.309	0.6177
0.676809	131.788	447.945	0.617989
0.676909	131.658	447.559	0.618316
0.677009	131.638	447.265	0.618528
0.677109	131.553	446.941	0.618799
0.677209	131.492	446.657	0.619033
0.677308	131.464	446.384	0.619247
0.677409	131.341	445.992	0.619595
0.677509	131.242	445.607	0.619907
0.677609	131.222	445.262	0.620169
0.677708	131.353	445.036	0.620271
0.677809	131.29	444.685	0.620539
0.677909	131.143	444.315	0.620862
0.678009	131.025	443.954	0.621182
0.678109	131.134	443.728	0.621287
0.678209	131.052	443.364	0.621579
0.678309	130.904	442.949	0.621938
0.678409	130.932	442.647	0.622131
0.678508	131.106	442.432	0.622206
0.678609	131.16	442.077	0.622477
0.678709	131.292	441.752	0.622678
0.678809	131.299	441.373	0.622929
0.678909	131.247	440.993	0.623187
0.679009	131.228	440.653	0.623407
0.679109	131.194	440.318	0.623647
0.679209	131.279	440.053	0.623801
0.679309	131.254	439.702	0.624052
0.679408	131.282	439.426	0.6242
0.679509	131.159	439.04	0.624514
0.679608	131.173	438.809	0.624635
0.679709	131.107	438.531	0.624859
0.679809	130.786	438.095	0.625321
0.679909	130.768	437.895	0.625464
0.680009	130.666	437.57	0.62575
0.680109	130.587	437.254	0.625995
0.680209	130.495	436.933	0.626258
0.680309	130.48	436.652	0.626463
0.680409	130.412	436.341	0.626708
0.680509	130.328	436.036	0.626961
0.680609	130.297	435.759	0.627189
0.680709	130.298	435.479	0.627389
0.680808	130.376	435.258	0.627476
0.680808	130.381	435.261	0.627471
0.680909	130.263	434.904	0.627761
0.681009	130.345	434.703	0.62783
0.681109	130.197	434.382	0.628083
0.681209	130.084	434.094	0.62833
0.681308	130.116	433.885	0.628449
0.681409	130.145	433.608	0.628644
0.681509	130.241	433.338	0.628778
0.681609	130.22	432.986	0.629005
0.681709	130.341	432.725	0.629119
0.681809	130.292	432.35	0.629414
0.681909	130.367	432.086	0.629529
0.682009	130.24	431.742	0.629771
0.682109	130.148	431.433	0.629999
0.682209	130.141	431.147	0.630184
0.682309	130.151	430.862	0.630364
0.682309	130.151	430.862	0.630364
0.682409	130.118	430.559	0.63059
0.682508	130.225	430.35	0.630663
0.682609	130.227	430.058	0.630834
0.682709	130.234	429.781	0.630993
0.682809	130.18	429.476	0.63119
0.682909	130.093	429.158	0.63143
0.683009	130.086	428.902	0.631594
0.683109	130.082	428.647	0.63176
0.683209	130.152	428.444	0.631859
0.683309	129.988	428.091	0.632176
0.683409	129.915	427.8	0.632397
0.683509	129.95	427.555	0.632534
0.683609	130.037	427.362	0.632594
0.683709	130	427.068	0.632814
0.683809	130.011	426.798	0.632975
0.683909	129.922	426.537	0.633146
0.684009	129.728	426.261	0.633414
0.684109	129.477	425.928	0.633776
0.684209	129.412	425.664	0.633992
0.684309	129.333	425.403	0.634185
0.684409	129.174	425.101	0.634447
0.684509	129.071	424.812	0.634683
0.684609	129.02	424.555	0.634861
0.684709	128.901	424.255	0.635104
0.684809	128.956	424.051	0.635195
0.684909	128.901	423.786	0.635368
0.685009	128.826	423.517	0.635547
0.685109	128.799	423.275	0.635698
0.685209	128.751	423.04	0.635854
0.685309	128.573	422.73	0.63612
0.685409	128.492	422.485	0.6363
0.685509	128.537	422.29	0.63641
0.685609	128.506	422.006	0.636606
0.685709	128.485	421.738	0.636755
0.685809	128.485	421.496	0.636877
0.685908	128.626	421.342	0.63687
0.686009	128.594	421.083	0.637026
0.686108	128.601	420.863	0.637131
0.686209	128.519	420.589	0.637321
0.686309	128.476	420.337	0.637474
0.686409	128.535	420.138	0.637539
0.686509	128.612	419.93	0.637628
0.686609	128.638	419.708	0.637743
0.686709	128.476	419.413	0.637977
0.686809	128.382	419.183	0.63814
0.686909	128.325	418.964	0.638294
0.687009	128.191	418.676	0.638529
0.687109	128.222	418.458	0.638627
0.687209	128.227	418.236	0.63873
0.687308	128.332	418.065	0.638763
0.687409	128.283	417.78	0.638938
0.687509	128.313	417.539	0.639028
0.687609	128.286	417.274	0.639159
0.687709	128.245	417.031	0.63928
0.687809	128.254	416.842	0.639343
0.687909	128.059	416.556	0.639587
0.688009	127.982	416.357	0.639722
0.688109	127.941	416.163	0.639848
0.688209	127.881	415.912	0.640039
0.688309	127.901	415.706	0.640139
0.688409	127.876	415.504	0.640232
0.688509	127.841	415.281	0.640357
0.688609	127.936	415.091	0.640417
0.688709	127.976	414.861	0.64053
0.688809	127.813	414.55	0.640765
0.688909	127.78	414.339	0.640869
0.689009	127.709	414.112	0.641024
0.689109	127.651	413.876	0.641181
0.689208	127.65	413.689	0.641263
